BCL SCATTERING INPUT PARAMETERS: QValue Intensity Error
0 900.6 1
0.001534 900.4 1
0.003068 899.6 1
0.004602 898.3 1
0.006136 896.5 1
0.00767 894.2 1
0.009204 891.5 1
0.01074 888.2 1
0.01227 884.4 1
0.01381 880.2 1
0.01534 875.4 1
0.01687 870.2 1
0.01841 864.6 1
0.01994 858.5 1
0.02148 852 1
0.02301 845.1 1
0.02454 837.7 1
0.02608 829.9 1
0.02761 821.8 1
0.02914 813.3 1
0.03068 804.4 1
0.03221 795.2 1
0.03375 785.7 1
0.03528 775.9 1
0.03681 765.8 1
0.03835 755.4 1
0.03988 744.7 1
0.04142 733.8 1
0.04295 722.7 1
0.04388 715.8 1
0.04481 708.9 1
0.04575 701.9 1
0.04668 694.8 1
0.04761 687.7 1
0.04854 680.5 1
0.04947 673.3 1
0.05041 666 1
0.05134 658.6 1
0.05227 651.3 1
0.0532 643.8 1
0.05413 636.4 1
0.05507 628.9 1
0.056 621.4 1
0.05693 613.9 1
0.05786 606.3 1
0.0588 598.7 1
0.05973 591.1 1
0.06066 583.6 1
0.06159 576 1
0.06252 568.4 1
0.06346 560.7 1
0.06439 553.1 1
0.06532 545.6 1
0.06625 538 1
0.06718 530.4 1
0.06812 522.8 1
0.06905 515.3 1
0.06998 507.8 1
0.07091 500.3 1
0.07184 492.8 1
0.07278 485.4 1
0.07371 478 1
0.07464 470.6 1
0.07557 463.3 1
0.0765 456 1
0.07744 448.8 1
0.07837 441.6 1
0.0793 434.4 1
0.08023 427.3 1
0.08116 420.2 1
0.0821 413.2 1
0.08303 406.3 1
0.08396 399.4 1
0.08489 392.5 1
0.08582 385.7 1
0.08676 379 1
0.08769 372.3 1
0.08862 365.7 1
0.08955 359.2 1
0.09049 352.7 1
0.09142 346.3 1
0.09235 339.9 1
0.09328 333.6 1
0.09421 327.4 1
0.09515 321.3 1
0.09608 315.2 1
0.09701 309.2 1
0.09794 303.3 1
0.09887 297.4 1
0.09981 291.7 1
0.1007 285.9 1
0.1017 280.3 1
0.1026 274.7 1
0.1035 269.3 1
0.1045 263.8 1
0.1054 258.5 1
0.1063 253.2 1
0.1073 248 1
0.1082 242.9 1
0.1091 237.9 1
0.1101 232.9 1
0.111 228 1
0.1119 223.2 1
0.1129 218.4 1
0.1138 213.7 1
0.1147 209.1 1
0.1157 204.6 1
0.1166 200.2 1
0.1175 195.8 1
0.1184 191.5 1
0.1194 187.2 1
0.1203 183 1
0.1212 178.9 1
0.1222 174.9 1
0.1231 171 1
0.124 167.1 1
0.125 163.2 1
0.1259 159.5 1
0.1268 155.8 1
0.1278 152.2 1
0.1287 148.6 1
0.1296 145.1 1
0.1306 141.7 1
0.1315 138.3 1
0.1324 135 1
0.1334 131.8 1
0.1343 128.6 1
0.1352 125.5 1
0.1362 122.4 1
0.1371 119.4 1
0.138 116.5 1
0.139 113.6 1
0.1399 110.8 1
0.1408 108.1 1
0.1417 105.3 1
0.1427 102.7 1
0.1436 100.1 1
0.1445 97.56 1
0.1455 95.07 1
0.1464 92.64 1
0.1473 90.25 1
0.1483 87.92 1
0.1492 85.64 1
0.1501 83.41 1
0.1511 81.23 1
0.152 79.1 1
0.1529 77.01 1
0.1539 74.97 1
0.1548 72.98 1
0.1557 71.04 1
0.1567 69.14 1
0.1576 67.28 1
0.1585 65.47 1
0.1595 63.7 1
0.1604 61.98 1
0.1613 60.29 1
0.1623 58.65 1
0.1632 57.05 1
0.1641 55.49 1
0.1651 53.97 1
0.166 52.49 1
0.1669 51.04 1
0.1678 49.64 1
0.1688 48.27 1
0.1697 46.93 1
0.1706 45.64 1
0.1716 44.38 1
0.1725 43.15 1
0.1734 41.96 1
0.1744 40.8 1
0.1753 39.67 1
0.1762 38.58 1
0.1772 37.52 1
0.1781 36.49 1
0.179 35.49 1
0.18 34.52 1
0.1809 33.58 1
0.1818 32.67 1
0.1828 31.79 1
0.1837 30.93 1
0.1846 30.1 1
0.1856 29.3 1
0.1865 28.53 1
0.1874 27.78 1
0.1884 27.06 1
0.1893 26.36 1
0.1902 25.69 1
0.1911 25.04 1
0.1921 24.41 1
0.193 23.8 1
0.1939 23.22 1
0.1949 22.66 1
0.1958 22.12 1
0.1967 21.6 1
0.1977 21.1 1
0.1986 20.62 1
0.1995 20.16 1
0.2005 19.71 1
0.2014 19.29 1
0.2023 18.88 1
0.2033 18.49 1
0.2042 18.11 1
0.2051 17.76 1
0.2061 17.41 1
0.207 17.09 1
0.2079 16.77 1
0.2089 16.47 1
0.2098 16.19 1
0.2107 15.92 1
0.2117 15.66 1
0.2126 15.41 1
0.2135 15.17 1
0.2145 14.95 1
0.2154 14.74 1
0.2163 14.54 1
0.2172 14.34 1
0.2182 14.16 1
0.2191 13.99 1
0.22 13.83 1
0.221 13.67 1
0.2219 13.53 1
0.2228 13.39 1
0.2238 13.26 1
0.2247 13.13 1
0.2256 13.02 1
0.2266 12.91 1
0.2275 12.8 1
0.2284 12.7 1
0.2294 12.61 1
0.2303 12.53 1
0.2312 12.44 1
0.2322 12.37 1
0.2331 12.3 1
0.234 12.23 1
0.235 12.16 1
0.2359 12.1 1
0.2368 12.05 1
0.2378 11.99 1
0.2387 11.94 1
0.2396 11.9 1
0.2405 11.85 1
0.2415 11.81 1
0.2424 11.77 1
0.2433 11.73 1
0.2443 11.7 1
0.2452 11.67 1
0.2461 11.63 1
0.2471 11.6 1
0.248 11.58 1
0.2489 11.55 1
0.2499 11.52 1
0.2508 11.5 1
0.2517 11.47 1
0.2527 11.45 1
0.2536 11.43 1
0.2545 11.41 1
0.2555 11.39 1
0.2564 11.37 1
0.2573 11.35 1
0.2583 11.33 1
0.2592 11.31 1
0.2601 11.29 1
0.2611 11.27 1
0.262 11.25 1
0.2629 11.23 1
0.2638 11.22 1
0.2648 11.2 1
0.2657 11.18 1
0.2666 11.16 1
0.2676 11.15 1
0.2685 11.13 1
0.2694 11.11 1
0.2704 11.1 1
0.2713 11.08 1
0.2722 11.06 1
0.2732 11.05 1
0.2741 11.03 1
0.275 11.01 1
0.276 11 1
0.2769 10.98 1
0.2778 10.96 1
0.2788 10.95 1
0.2797 10.93 1
0.2806 10.91 1
0.2816 10.9 1
0.2825 10.88 1
0.2834 10.86 1
0.2844 10.85 1
0.2853 10.83 1
0.2862 10.81 1
0.2872 10.8 1
0.2881 10.78 1
0.289 10.76 1
0.2899 10.75 1
0.2909 10.73 1
0.2918 10.72 1
0.2927 10.7 1
0.2937 10.68 1
0.2946 10.67 1
0.2955 10.65 1
0.2965 10.64 1
0.2974 10.62 1
0.2983 10.6 1
0.2993 10.59 1
0.3002 10.57 1
0.3011 10.55 1
0.3021 10.54 1
0.303 10.52 1
0.3039 10.5 1
0.3049 10.49 1
0.3058 10.47 1
0.3067 10.45 1
0.3077 10.43 1
0.3086 10.42 1
0.3095 10.4 1
0.3105 10.38 1
0.3114 10.36 1
0.3123 10.34 1
0.3132 10.32 1
0.3142 10.3 1
0.3151 10.28 1
0.316 10.26 1
0.317 10.24 1
0.3179 10.22 1
0.3188 10.2 1
0.3198 10.17 1
0.3207 10.15 1
0.3216 10.13 1
0.3226 10.1 1
0.3235 10.08 1
0.3244 10.05 1
0.3254 10.03 1
0.3263 9.999 1
0.3272 9.971 1
0.3282 9.943 1
0.3291 9.914 1
0.33 9.884 1
0.331 9.853 1
0.3319 9.822 1
0.3328 9.79 1
0.3338 9.757 1
0.3347 9.724 1
0.3356 9.689 1
0.3366 9.654 1
0.3375 9.618 1
0.3384 9.581 1
0.3393 9.544 1
0.3403 9.506 1
0.3412 9.467 1
0.3421 9.427 1
0.3431 9.387 1
0.344 9.346 1
0.3449 9.304 1
0.3459 9.262 1
0.3468 9.219 1
0.3477 9.175 1
0.3487 9.131 1
0.3496 9.086 1
