BCL SCATTERING INPUT PARAMETERS: QValue Intensity Error
0 634600 142.8
0.015 629300 2416
0.03 613600 3994
0.045 588100 4870
0.06 554000 6083
0.075 512700 8183
0.09 465800 6359
0.105 415200 6602
0.12 362700 7900
0.135 310200 7594
0.15 259300 7049
0.165 211500 7374
0.18 168000 5473
0.195 129500 4189
0.21 96700 4591
0.225 69650 3069
0.24 48290 1920
0.255 32250 1734
0.27 20980 1109
0.285 13790 768.9
0.3 9912 537
0.315 8575 487.8
0.33 9037 493.5
0.345 10630 717.2
0.36 12790 1247
0.375 15080 1106
0.39 17160 1309
0.405 18840 1377
0.42 20000 1894
0.435 20620 1483
0.45 20730 2104
0.465 20430 1714
0.48 19810 1858
0.495 18990 1554
0.51 18060 1523
0.525 17120 1621
0.54 16240 1450
0.555 15460 1418
0.57 14800 1774
0.585 14260 1505
0.6 13850 1248
0.615 13520 1624
0.63 13260 1255
0.645 13020 1387
0.66 12770 1519
0.675 12490 1393
0.69 12140 1636
0.705 11730 1739
0.72 11240 1459
0.735 10690 1416
0.75 10080 1249
